#------------------------------------------------------
# Location    : CenterPoint
# Quantity    : Head
# id          : CenterPoint.Head
# Unit        : Head
# Height      : 0
# Position    : (518136,6229330)
#------------------------------------------------------
197212250000	65.607239
197212260000	65.605202
197212270200	65.602890
197212280800	65.600159
197212290800	65.598007
197212300800	65.595795
197212310800	65.593529
197301010800	65.591164
197301020800	65.588760
197301031800	65.585274
197301041800	65.582794
197301051800	65.580261
197301061800	65.577667
197301071800	65.575027
197301090000	65.571709
197301100000	65.569031
197301110000	65.566345
197301120000	65.563629
197301130000	65.560921
197301140000	65.558220
197301150000	65.555473
197301160000	65.544334
197301170400	65.541397
197301181000	65.538109
197301191000	65.535431
197301201000	65.532761
197301211400	65.529648
197301221928	65.526192
197301240000	65.523064
197301250600	65.519684
197301260600	65.516960
197301270800	65.514046
197301280800	65.511307
197301290800	65.508606
197301301200	65.505501
197301311733	65.502144
197302020000	65.498886
197302030600	65.495735
197302040600	65.493019
197302051200	65.489624
197302061200	65.487274
197302071200	65.484779
197302081200	65.482292
197302091200	65.479797
197302101400	65.477142
197302120000	65.473770
197302130000	65.471382
197302140000	65.469124
197302150149	65.466690
197302160400	65.464043
197302170400	65.461662
197302180600	65.459030
197302190800	65.456451
197302201400	65.453499
197302220000	65.450119
197302230000	65.447990
197302240200	65.445557
197302250600	65.443092
197302260600	65.440842
197302271600	65.437859
197302281600	65.435806
197303011600	65.433800
197303021600	65.431824
197303031800	65.429771
197303050000	65.427475
197303060000	65.425728
197303070000	65.423935
197303080000	65.422234
197303090000	65.420525
197303100000	65.418854
197303110000	65.417244
197303120000	65.415741
197303130000	65.414276
197303140000	65.412827
197303150000	65.411407
197303160000	65.410011
197303170000	65.408661
197303180000	65.407310
197303190000	65.413422
197303200000	65.411804
197303210000	65.410553
197303220000	65.409386
197303230000	65.408302
197303240000	65.407272
197303250000	65.406281
197303260000	65.405334
197303270000	65.404434
197303280000	65.403595
197303290000	65.402817
197303300000	65.405983
197303310000	65.405380
197304010501	65.404602
197304020557	65.403831
197304030600	65.403503
197304040800	65.404427
197304050800	65.406342
197304060800	65.406082
197304070800	65.405884
197304080800	65.405617
197304091200	65.409752
197304101200	65.409920
197304111916	65.410034
197304122152	65.452072
197304140400	65.450661
197304151200	65.451057
197304161200	65.451790
197304171200	65.452499
197304181200	65.453262
197304191600	65.454216
197304210000	65.455437
197304220000	65.456444
197304230000	65.457512
197304240000	65.464249
197304250000	65.465508
197304260000	65.466728
197304270000	65.468002
197304280000	65.469536
197304290000	65.471062
197304300000	65.472626
197305010000	65.474213
197305020000	65.475754
197305030800	65.483772
197305041800	65.486160
197305052152	65.488197
197305070400	65.490433
197305080400	65.492317
197305090600	65.494324
197305100600	65.496277
197305110800	65.498322
197305120800	65.500244
197305130800	65.502129
197305140800	65.509804
197305151200	65.511841
197305161200	65.513817
197305171200	65.515770
197305181200	65.517715
197305191200	65.519623
197305201200	65.521500
197305211200	65.523346
197305221200	65.525154
197305231200	65.526917
197305241600	65.528908
197305251600	65.530602
197305270000	65.538368
197305280000	65.540024
197305290000	65.541656
197305300000	65.543259
197305310000	65.544861
197306010000	65.546455
197306020000	65.547981
197306030000	65.549759
197306040000	65.551437
197306050200	65.553200
197306060400	65.555000
197306070400	65.556435
197306080400	65.557938
197306091000	65.559708
197306101150	65.561333
197306111200	65.562576
197306121400	65.563950
197306140000	65.565643
197306150000	65.567101
197306160000	65.568336
197306170000	65.569542
197306180000	65.570717
197306190000	65.571884
197306200000	65.572884
197306210000	65.573875
197306220000	65.574875
197306230000	65.575882
197306240000	65.576881
197306250000	65.577873
197306260000	65.578850
197306270000	65.579842
197306280400	65.581100
197306290600	65.581955
197306300600	65.582870
197307010600	65.583733
197307020600	65.584564
197307030600	65.585312
197307041200	65.586205
197307051800	65.586922
197307061800	65.587631
197307071800	65.588257
197307082000	65.588982
197307100000	65.589684
197307110000	65.590332
197307120000	65.590889
197307130000	65.591362
197307140000	65.586388
197307150000	65.587006
197307160000	65.587410
197307170000	65.587784
197307180000	65.588226
197307190200	65.588646
197307200800	65.589088
197307211200	65.589294
197307221200	65.583969
197307231200	65.584679
197307241200	65.585075
197307251200	65.585426
197307261200	65.583969
197307271400	65.584183
197307281400	65.584152
197307300000	65.584328
197307310000	65.584656
197308010000	65.584694
197308020000	65.536285
197308030000	65.580292
197308040000	65.579369
197308050200	65.579330
197308060800	65.579208
197308070800	65.579247
197308080928	65.573044
197308091000	65.572899
197308101000	65.572853
197308111600	65.572731
197308121600	65.572601
197308131600	65.572403
197308141600	65.572189
197308151600	65.571976
197308161600	65.571770
197308171600	65.571541
197308181600	65.571266
197308191600	65.570869
197308201600	65.529053
197308211600	65.529762
197308230000	65.530235
197308241000	65.530830
197308251000	65.531250
197308261000	65.531624
197308271000	65.531982
197308281000	65.532310
197308291000	65.532570
197308301000	65.525948
197308311000	65.526443
197309011121	65.526794
197309021200	65.526962
197309031200	65.527191
197309041200	65.527336
197309052000	65.520027
197309062000	65.520317
197309072000	65.520523
197309082000	65.520676
197309092000	65.520798
197309102000	65.520874
197309112000	65.520912
197309130600	65.513962
197309140600	65.514137
197309150600	65.514191
197309160600	65.514191
197309171200	65.513725
197309181200	65.514091
197309191200	65.507164
197309201200	65.507431
197309211200	65.507462
197309221200	65.507530
197309231328	65.504234
197309241600	65.504204
197309251733	65.504196
197309261800	65.497978
197309272000	65.498001
197309282200	65.497932
197309292322	65.497780
197310010000	65.497429
197310020400	65.497276
197310030800	65.489418
197310040800	65.489586
197310050800	65.489395
197310060800	65.489105
197310070800	65.488800
197310080800	65.488457
197310090841	65.480675
197310100913	65.480721
197310111200	65.480385
197310121800	65.479790
197310131800	65.479355
197310141800	65.478828
197310160000	65.471085
197310170000	65.470818
197310180000	65.470444
197310190347	65.470001
197310200400	65.469505
197310210400	65.461342
197310221200	65.460701
197310231200	65.460358
197310241200	65.459816
197310251200	65.459152
197310261200	65.458481
197310271200	65.449585
197310281200	65.450165
197310291200	65.449608
197310301200	65.448967
197310311200	65.448326
197311011200	65.447601
197311021200	65.439857
197311031200	65.439285
197311041200	65.438576
197311051200	65.437820
197311061200	65.427849
197311071200	65.427353
197311081200	65.426735
197311091200	65.425972
197311101200	65.425110
197311111540	65.424171
197311121600	65.423103
197311131600	65.408241
197311141600	65.408409
197311151600	65.407791
197311161600	65.406914
197311171800	65.405991
197311182000	65.404854
197311200000	65.403725
197311210000	65.402695
197311220102	65.401550
197311230108	65.400459
197311240111	65.399246
197311250118	65.390854
197311260356	65.389587
197311270400	65.388290
197311280600	65.386978
197311291249	65.385246
197311301600	65.383507
197312020000	65.381645
197312030000	65.380112
197312040000	65.372612
197312050000	65.371239
197312060151	65.369621
197312070400	65.367889
197312080400	65.366295
197312090400	65.364609
197312101200	65.362335
197312111200	65.360672
197312121200	65.356880
197312131200	65.355118
197312141337	65.353279
197312151400	65.351410
197312161800	65.343231
197312171800	65.341660
197312182000	65.339767
197312200000	65.337631
197312210400	65.335274
197312220400	65.333473
197312231152	65.330650
197312241200	65.328888
197312251200	65.326881
197312261200	65.324829
197312271400	65.322594
197312281600	65.320259
197312291600	65.312477
197312310000	65.309769
197401010200	65.307579
197401020800	65.304970
197401031400	65.302292
197401041400	65.300140
197401051400	65.297920
197401061400	65.295647
197401071600	65.293175
197401082200	65.290245
197401100600	65.287079
197401110600	65.284660
197401120720	65.281998
197401130759	65.279381
197401140800	65.276749
197401150800	65.274147
197401160919	65.271378
197401170944	65.268661
197401181000	65.265884
197401191000	65.263062
197401201400	65.259727
197401212000	65.256104
197401222000	65.253235
197401232000	65.250328
197401242128	65.247215
197401252200	65.244194
197401270000	65.240974
197401280000	65.237976
197401290000	65.235016
197401300000	65.232002
197401310200	65.228714
197402010200	65.225693
197402020600	65.222099
197402030600	65.219040
197402041200	65.215126
197402051200	65.212044
197402061200	65.208908
197402071200	65.205780
197402081200	65.202621
197402091200	65.199417
197402101200	65.196281
197402111200	65.193108
197402121200	65.189941
197402131400	65.186485
197402142000	65.182434
197402152200	65.178886
197402162200	65.175613
197402172200	65.172333
197402190000	65.168785
197402200000	65.171425
197402210000	65.168022
197402220600	65.163872
197402230600	65.160637
197402240600	65.157402
197402250600	65.154213
197402260600	65.151047
197402270600	65.147896
197402280600	65.144775
197403010600	65.141678
197403020600	65.138603
197403030600	65.142578
197403041200	65.137970
197403051200	65.134964
197403061200	65.131981
197403071200	65.129089
197403081200	65.126274
197403091200	65.123535
197403101200	65.120857
197403111200	65.118294
197403121200	65.115822
197403131200	65.121109
197403141200	65.117844
197403151200	65.115456
197403161200	65.113220
197403171200	65.111099
197403181600	65.108955
197403191600	65.107224
197403202000	65.105431
197403220000	65.111412
197403230000	65.110001
197403240800	65.108521
197403250800	65.107674
197403260800	65.107018
197403270800	65.113831
197403280800	65.113426
197403290800	65.113228
197403300800	65.121025
197403310800	65.120369
197404011200	65.120773
197404021200	65.129341
197404031200	65.129425
197404041200	65.130615
197404051200	65.138824
197404061200	65.140335
197404071200	65.142174
197404081200	65.151077
197404091200	65.153244
197404101200	65.162315
197404111200	65.164780
197404121200	65.174492
197404131200	65.177299
197404141200	65.188614
197404151200	65.190529
197404161200	65.193703
197404171200	65.204201
197404181200	65.207466
197404191200	65.218254
197404201200	65.221588
197404211200	65.232147
197404221200	65.235512
197404231200	65.247246
197404241200	65.249359
197404251200	65.252922
197404261200	65.263931
197404271200	65.267349
197404281200	65.279274
197404291200	65.281319
197404301200	65.284874
197405011200	65.296135
197405021200	65.299461
197405031200	65.303085
197405041400	65.307121
197405051800	65.300133
197405062000	65.361435
197405072000	65.365837
197405082000	65.370239
197405092000	65.374504
197405102000	65.384010
197405112000	65.388214
197405122000	65.392242
197405140000	65.396866
197405150000	65.400902
197405160000	65.404823
197405170000	65.414406
197405180000	65.417793
197405190000	65.421310
197405200000	65.424751
197405210000	65.428108
197405220000	65.431381
197405230000	65.434578
197405240000	65.437729
197405250000	65.440956
197405260000	65.444145
197405270000	65.447227
197405280000	65.450233
197405290000	65.453117
197405300000	65.455894
197405310400	65.459229
197406011400	65.462738
197406030000	65.472000
197406040000	65.474602
197406050000	65.477043
197406060457	65.479843
197406071400	65.482979
197406090000	65.486153
197406100000	65.488274
197406110000	65.490334
197406120000	65.492210
197406130000	65.493996
197406140000	65.495766
197406150000	65.497513
197406160000	65.499260
197406170000	65.501015
197406180000	65.502701
197406190000	65.504364
197406200000	65.505943
197406210400	65.507744
197406220600	65.509323
197406230800	65.510750
197406241200	65.512299
197406251200	65.513710
197406261200	65.514877
197406271200	65.516037
197406281200	65.517181
197406291200	65.518326
197406301200	65.519455
197407011200	65.520546
197407021200	65.521561
197407031200	65.516174
197407041200	65.517105
197407051200	65.517929
197407061200	65.518768
197407071200	65.519493
197407081200	65.520241
197407091800	65.521111
197407101800	65.521751
197407111800	65.480370
197407122000	65.482330
197407132000	65.483467
197407142036	65.484673
197407152200	65.485756
197407170000	65.486893
197407180000	65.487862
197407190000	65.488815
197407200200	65.489708
197407210600	65.490479
197407221200	65.482147
197407231200	65.483665
197407241200	65.484543
197407251200	65.485413
197407261200	65.485985
197407271400	65.486801
197407281400	65.487511
197407291558	65.487625
197407301800	65.485992
197408010000	65.486763
197408020600	65.487556
197408030600	65.481346
197408040600	65.482246
197408051200	65.482590
197408061200	65.483658
197408071200	65.484261
197408081200	65.476341
197408091200	65.478836
197408101400	65.479507
197408111400	65.480034
197408121510	65.474159
197408131600	65.474922
197408141800	65.475349
197408160000	65.475777
197408170000	65.476059
197408180000	65.476379
197408190000	65.476669
197408200000	65.470184
197408210000	65.470711
197408220000	65.471001
197408230000	65.471222
197408240000	65.471420
197408250000	65.471603
197408260000	65.464821
197408270000	65.465157
197408280000	65.465378
197408291000	65.465446
197408301000	65.465492
197408311000	65.458931
197409011800	65.458984
197409022000	65.459381
197409032000	65.449341
197409042000	65.451561
197409052000	65.451736
197409062200	65.451576
197409080000	65.451370
197409090000	65.440987
197409100000	65.441376
197409110000	65.441360
197409120000	65.441246
197409130000	65.440964
197409140000	65.440727
197409150200	65.440338
197409160800	65.439964
197409170800	65.439636
197409181800	65.432022
197409191800	65.431915
197409201800	65.431572
197409211800	65.431183
197409221906	65.420830
197409231912	65.420753
197409242200	65.420341
197409252200	65.419586
197409270600	65.419029
197409280721	65.418587
197409290800	65.418015
197409300800	65.417290
197410011200	65.408287
197410021200	65.407761
197410031309	65.407181
197410041600	65.406357
197410051800	65.405464
197410070000	65.404427
197410080000	65.403534
197410090000	65.395752
197410100000	65.395035
197410110000	65.394218
197410120000	65.393387
197410130000	65.383186
197410140000	65.384300
197410150000	65.383408
197410160000	65.382439
197410170000	65.381424
197410180000	65.380348
197410190000	65.379189
197410200000	65.371880
197410210000	65.370888
197410220400	65.369629
197410230557	65.368523
197410240800	65.365417
197410251000	65.364105
197410261200	65.356377
197410271200	65.355362
197410281600	65.353943
197410300000	65.352272
197410310000	65.350922
197411010000	65.349556
197411020000	65.348167
197411030000	65.340454
197411040000	65.339729
197411050000	65.338356
197411060000	65.336945
197411070000	65.335518
197411080000	65.334114
197411090400	65.332382
197411100757	65.325058
197411110800	65.323578
197411120800	65.322052
197411130800	65.320496
197411141000	65.318810
197411151140	65.306969
197411161200	65.306686
197411171200	65.305252
197411181200	65.303688
197411191200	65.302063
197411201400	65.300148
197411212000	65.297821
197411230200	65.295364
197411240200	65.293434
197411251150	65.290596
197411261400	65.288513
197411271400	65.286530
197411281600	65.284302
197411291600	65.282188
197411301600	65.280067
197412012000	65.277557
197412022306	65.275146
197412040400	65.272537
197412050523	65.264526
197412060552	65.262436
197412070800	65.260048
197412081000	65.257660
197412091600	65.254852
197412101600	65.252563
197412111600	65.250206
197412121800	65.247513
197412131800	65.245064
197412150000	65.241852
197412160000	65.239243
197412170000	65.236557
197412180159	65.233635
197412190200	65.230835
197412200200	65.227989
197412210800	65.224342
197412221200	65.220863
197412231200	65.217819
197412241600	65.214340
197412251600	65.211266
197412261600	65.208160
197412271800	65.204750
197412281956	65.201332
197412300000	65.197502
197412310600	65.193405
197501010600	65.189919
197501020600	65.186554
197501030800	65.182892
197501041200	65.178886
197501051514	65.174873
197501062200	65.170403
197501072200	65.166840
197501082200	65.169083
197501100000	65.165016
197501110400	65.160645
197501120513	65.156593
197501130538	65.152763
197501140600	65.148941
197501151200	65.144325
197501161800	65.145744
197501171800	65.141678
197501181800	65.137810
197501191912	65.133812
197501202000	65.129921
197501212000	65.126251
197501222200	65.129196
197501232226	65.125191
197501242327	65.121269
197501260112	65.117271
197501270200	65.113503
197501280200	65.109917
197501290339	65.113960
197501300400	65.110260
197501310400	65.106743
197502010400	65.103371
197502020400	65.100182
197502030800	65.104973
197502041200	65.101479
197502051200	65.098640
197502061200	65.103752
197502071200	65.100487
197502081200	65.098221
197502091200	65.103058
197502101200	65.101219
197502111200	65.106094
197502121200	65.112099
197502131200	65.110344
197502141200	65.117218
197502151200	65.116867
197502161200	65.123810
197502171200	65.131889
197502181200	65.139969
197502191600	65.149376
197502202200	65.158096
197502212200	65.159241
197502222200	65.169975
197502232200	65.179352
197502242200	65.190239
197502252200	65.202019
197502262200	65.256233
197502272200	65.269989
197502282200	65.284035
197503012200	65.298447
197503022200	65.317276
197503040000	65.334785
197503050149	65.351578
197503060200	65.368744
197503070200	65.387093
197503080400	65.406891
197503091000	65.434898
197503101000	65.461617
197503111000	65.485016
197503121000	65.501793
197503131000	65.529083
197503141000	65.546791
197503151000	65.563660
197503161000	65.586143
197503171200	65.603279
197503181200	65.620232
197503191200	65.634048
197503201200	65.640511
197503211200	65.656044
197503221200	65.670410
197503231200	65.724335
197503241200	65.733871
197503251200	65.742874
197503261200	65.751534
197503271600	65.766464
197503282000	65.780998
197503292000	65.789215
197503310000	65.803200
197504010000	65.810463
197504020000	65.822578
197504030400	65.830765
197504040400	65.837372
197504051151	65.850494
197504061231	65.856972
197504071400	65.863342
197504081600	65.869820
197504092000	65.882309
197504102150	65.888329
197504120400	65.894615
197504131200	65.906013
197504141200	65.911003
197504151200	65.915482
197504161349	65.920265
197504171600	65.924721
197504182000	65.929604
197504200000	65.940018
197504210000	65.943794
197504220000	65.947433
197504230000	65.950935
197504240000	65.954292
197504250000	65.957558
197504260000	65.960732
197504270000	65.963814
197504280000	65.966805
197504290000	65.969650
197504300000	65.972389
197505010000	65.975067
197505020000	65.977669
197505030000	65.980171
197505040200	65.982849
197505050600	65.985588
197505061400	65.988632
197505071400	65.990860
197505081400	65.993011
197505091400	65.995026
197505110000	65.997742
197505120000	65.999588
197505130000	66.001381
197505140000	66.003174
197505150000	66.004776
197505160000	66.006287
197505170000	66.007774
197505180000	66.009239
197505190000	66.010742
197505200000	66.012108
197505210000	66.013412
197505220400	66.014977
197505230756	66.008919
197505240800	66.010315
197505251400	66.011543
197505262200	66.012848
197505272200	66.013924
197505282200	66.014816
197505292200	66.015488
197505310600	66.016365
197506010600	66.017036
197506020600	66.017693
197506030736	66.012650
197506040932	66.013390
197506051000	66.013802
197506061200	66.014282
197506071200	66.014709
197506082000	66.015167
197506100000	66.015541
197506110000	66.015739
197506120000	66.015930
197506130000	66.016136
197506140000	66.010849
197506150000	66.011047
197506160000	66.011230
197506170000	66.011337
197506180000	66.011314
