#------------------------------------------------------
# Location    : CenterPoint
# Quantity    : Head
# id          : CenterPoint.Head
# Unit        : Head
# Height      : 0
# Position    : (508003,6237430)
#------------------------------------------------------
197212250000	44.3179
197212260000	44.3135
197212270200	44.3088
197212280800	44.3034
197212290800	44.299
197212300800	44.2946
197212310800	44.2903
197301010800	44.286
197301020800	44.2817
197301031800	44.2758
197301041800	44.2715
197301051800	44.2674
197301061800	44.2632
197301071800	44.2591
197301090000	44.254
197301100000	44.25
197301110000	44.2461
197301120000	44.2422
197301130000	44.2384
197301140000	44.2346
197301150000	44.2309
197301160000	44.2272
197301170400	44.2231
197301181000	44.2247
197301191000	44.2209
197301201000	44.2174
197301211400	44.2135
197301221928	44.2096
197301240000	44.206
197301250600	44.2082
197301260600	44.205
197301270800	44.2019
197301280800	44.1994
197301290800	44.197
197301301200	44.1943
197301311733	44.197
197302020000	44.1944
197302030600	44.192
197302040600	44.1901
197302051200	44.1934
197302061200	44.1917
197302071200	44.19
197302081200	44.1885
197302091200	44.1871
197302101400	44.1917
197302120000	44.1894
197302130000	44.1881
197302140000	44.1869
197302150149	44.1857
197302160400	44.1846
197302170400	44.19
197302180600	44.1889
197302190800	44.1878
197302201400	44.1867
197302220000	44.1853
197302230000	44.1904
197302240200	44.189
197302250600	44.1878
197302260600	44.1866
197302271600	44.1914
197302281600	44.1901
197303011600	44.1887
197303021600	44.1873
197303031800	44.196
197303050000	44.1923
197303060000	44.1908
197303070000	44.1895
197303080000	44.1881
197303090000	44.1936
197303100000	44.1922
197303110000	44.1907
197303120000	44.1975
197303130000	44.1951
197303140000	44.1937
197303150000	44.1923
197303160000	44.1975
197303170000	44.1961
197303180000	44.1947
197303190000	44.2003
197303200000	44.1989
197303210000	44.1976
197303220000	44.2043
197303230000	44.2021
197303240000	44.2008
197303250000	44.1998
197303260000	44.206
197303270000	44.2048
197303280000	44.2038
197303290000	44.2108
197303300000	44.2087
197303310000	44.2078
197304010501	44.2067
197304020557	44.2132
197304030600	44.2123
197304040800	44.2115
197304050800	44.2108
197304060800	44.2102
197304070800	44.2182
197304080800	44.2175
197304091200	44.2169
197304101200	44.2165
197304111916	44.216
197304122152	44.2228
197304140400	44.2219
197304151200	44.2212
197304161200	44.2208
197304171200	44.2203
197304181200	44.2199
197304191600	44.2193
197304210000	44.2261
197304220000	44.2256
197304230000	44.225
197304240000	44.2245
197304250000	44.224
197304260000	44.2234
197304270000	44.2228
197304280000	44.2222
197304290000	44.2215
197304300000	44.2208
197305010000	44.2202
197305020000	44.2195
197305030800	44.2257
197305041800	44.2245
197305052152	44.2239
197305070400	44.2229
197305080400	44.2222
197305090600	44.2214
197305100600	44.2208
197305110800	44.2202
197305120800	44.2196
197305130800	44.219
197305140800	44.2184
197305151200	44.2175
197305161200	44.217
197305171200	44.2163
197305181200	44.2156
197305191200	44.2149
197305201200	44.2141
197305211200	44.2134
197305221200	44.2127
197305231200	44.2051
197305241600	44.2046
197305251600	44.2039
197305270000	44.2029
197305280000	44.2022
197305290000	44.2015
197305300000	44.2009
197305310000	44.2001
197306010000	44.1993
197306020000	44.1718
197306030000	44.1915
197306040000	44.191
197306050200	44.1902
197306060400	44.1895
197306070400	44.1887
197306080400	44.188
197306091000	44.1869
197306101150	44.1817
197306111200	44.1821
197306121400	44.1812
197306140000	44.1799
197306150000	44.1793
197306160000	44.1785
197306170000	44.1707
197306180000	44.1701
197306190000	44.1694
197306200000	44.1686
197306210000	44.1678
197306220000	44.167
197306230000	44.1662
197306240000	44.1572
197306250000	44.1578
197306260000	44.1571
197306270000	44.1564
197306280400	44.1555
197306290600	44.1544
197306300600	44.1535
197307010600	44.1526
197307020600	44.1448
197307030600	44.144
197307041200	44.1431
197307051800	44.1419
197307061800	44.1411
197307071800	44.1332
197307082000	44.1326
197307100000	44.1315
197307110000	44.1307
197307120000	44.1298
197307130000	44.1211
197307140000	44.1214
197307150000	44.1205
197307160000	44.1196
197307170000	44.1187
197307180000	44.1097
197307190200	44.1089
197307200800	44.1077
197307211200	44.1064
197307221200	44.1056
197307231200	44.0976
197307241200	44.0969
197307251200	44.096
197307261200	44.0936
197307271400	44.0859
197307281400	44.0849
197307300000	44.0835
197307310000	44.0826
197308010000	44.0754
197308020000	44.0746
197308030000	44.0737
197308040000	44.0696
197308050200	44.0685
197308060800	44.0608
197308070800	44.0599
197308080928	44.059
197308091000	44.0578
197308101000	44.0506
197308111600	44.0493
197308121600	44.0482
197308131600	44.0469
197308141600	44.0457
197308151600	44.0444
197308161600	44.0376
197308171600	44.0363
197308181600	44.0351
197308191600	44.0337
197308201600	44.0271
197308211600	44.0258
197308230000	44.024
197308241000	44.0219
197308251000	44.0152
197308261000	44.0137
197308271000	44.0122
197308281000	44.0107
197308291000	44.0033
197308301000	44.0023
197308311000	44.0007
197309011121	43.9927
197309021200	43.9913
197309031200	43.9898
197309041200	43.9881
197309052000	43.9857
197309062000	43.9839
197309072000	43.9821
197309082000	43.9745
197309092000	43.9731
197309102000	43.9713
197309112000	43.9694
197309130600	43.9667
197309140600	43.9596
197309150600	43.9577
197309160600	43.9557
197309171200	43.953
197309181200	43.9512
197309191200	43.9438
197309201200	43.9418
197309211200	43.9398
197309221200	43.9319
197309231328	43.9298
197309241600	43.9275
197309251733	43.9252
197309261800	43.923
197309272000	43.9205
197309282200	43.8773
197309292322	43.8764
197310010000	43.875
197310020400	43.8735
197310030800	43.8714
197310040800	43.8701
197310050800	43.8684
197310060800	43.8596
197310070800	43.8581
197310080800	43.8566
197310090841	43.855
197310100913	43.843
197310111200	43.8423
197310121800	43.8402
197310131800	43.8386
197310141800	43.837
197310160000	43.8349
197310170000	43.8333
197310180000	43.8316
197310190347	43.8211
197310200400	43.8197
197310210400	43.8179
197310221200	43.8155
197310231200	43.814
197310241200	43.8122
197310251200	43.8018
197310261200	43.8019
197310271200	43.8004
197310281200	43.7986
197310291200	43.7969
197310301200	43.7951
197310311200	43.7864
197311011200	43.7849
197311021200	43.7831
197311031200	43.7814
197311041200	43.7796
197311051200	43.7708
197311061200	43.7694
197311071200	43.7676
197311081200	43.7658
197311091200	43.7545
197311101200	43.7536
197311111540	43.7517
197311121600	43.7498
197311131600	43.748
197311141600	43.7461
197311151600	43.7443
197311161600	43.7325
197311171800	43.7309
197311182000	43.7289
197311200000	43.7267
197311210000	43.7247
197311220102	43.7226
197311230108	43.7207
197311240111	43.7115
197311250118	43.7098
197311260356	43.7076
197311270400	43.7055
197311280600	43.7033
197311291249	43.7004
197311301600	43.6905
197312020000	43.6879
197312030000	43.6857
197312040000	43.6835
197312050000	43.6813
197312060151	43.6787
197312070400	43.6732
197312080400	43.6708
197312090400	43.6683
197312101200	43.6574
197312111200	43.6547
197312121200	43.6518
197312131200	43.6488
197312141337	43.6455
197312151400	43.6423
197312161800	43.6384
197312171800	43.6352
197312182000	43.6316
197312200000	43.6276
197312210400	43.6234
197312220400	43.6199
197312231152	43.615
197312241200	43.6112
197312251200	43.6074
197312261200	43.6035
197312271400	43.5993
197312281600	43.595
197312291600	43.591
197312310000	43.5857
197401010200	43.5813
197401020800	43.5762
197401031400	43.5711
197401041400	43.567
197401051400	43.5628
197401061400	43.5587
197401071600	43.5541
197401082200	43.549
197401100600	43.5433
197401110600	43.539
197401120720	43.5426
197401130759	43.5379
197401140800	43.5335
197401150800	43.5291
197401160919	43.5245
197401170944	43.5201
197401181000	43.5156
197401191000	43.5111
197401201400	43.506
197401212000	43.5002
197401222000	43.5019
197401232000	43.4966
197401242128	43.4907
197401252200	43.4968
197401270000	43.4876
197401280000	43.4819
197401290000	43.4763
197401300000	43.4707
197401310200	43.4723
197402010200	43.4664
197402020600	43.4601
197402030600	43.462
197402041200	43.4537
197402051200	43.4477
197402061200	43.4484
197402071200	43.4426
197402081200	43.4443
197402091200	43.438
197402101200	43.4398
197402111200	43.4343
197402121200	43.4377
197402131400	43.4323
197402142000	43.4369
197402152200	43.4323
197402162200	43.4482
197402172200	43.431
197402190000	43.4717
197402200000	43.4717
197402210000	43.4768
197402220600	43.4829
197402230600	43.4842
197402240600	43.4904
197402250600	43.4968
197402260600	43.5036
197402270600	43.5062
197402280600	43.5136
197403010600	43.5214
197403020600	43.5296
197403030600	43.5383
197403041200	43.5474
197403051200	43.5563
197403061200	43.5598
197403071200	43.57
197403081200	43.5801
197403091200	43.5908
197403101200	43.6009
197403111200	43.6123
197403121200	43.6154
197403131200	43.6254
197403141200	43.6366
197403151200	43.6402
197403161200	43.6504
197403171200	43.6614
197403181600	43.6649
197403191600	43.6769
197403202000	43.6806
197403220000	43.6927
197403230000	43.6954
197403240800	43.7063
197403250800	43.7092
197403260800	43.7121
197403270800	43.7218
197403280800	43.7246
197403290800	43.7273
197403300800	43.7369
197403310800	43.7393
197404011200	43.7419
197404021200	43.7536
197404031200	43.7544
197404041200	43.7568
197404051200	43.7591
197404061200	43.7613
197404071200	43.7635
197404081200	43.7728
197404091200	43.7748
197404101200	43.7769
197404111200	43.779
197404121200	43.7811
197404131200	43.7832
197404141200	43.7851
197404151200	43.7871
197404161200	43.789
197404171200	43.7908
197404181200	43.7927
197404191200	43.7946
197404201200	43.7964
197404211200	43.7982
197404221200	43.7999
197404231200	43.8015
197404241200	43.8033
197404251200	43.805
197404261200	43.8067
197404271200	43.8083
197404281200	43.8099
197404291200	43.8116
197404301200	43.8132
197405011200	43.8148
197405021200	43.8164
197405031200	43.818
197405041400	43.8197
197405051800	43.8217
197405062000	43.8233
197405072000	43.8249
197405082000	43.8178
197405092000	43.8212
197405102000	43.8228
197405112000	43.8244
197405122000	43.8258
197405140000	43.8275
197405150000	43.8289
197405160000	43.8232
197405170000	43.8249
197405180000	43.8263
197405190000	43.8276
197405200000	43.8289
197405210000	43.8302
197405220000	43.8314
197405230000	43.8258
197405240000	43.8272
197405250000	43.8285
197405260000	43.8296
197405270000	43.8307
197405280000	43.8235
197405290000	43.8262
197405300000	43.8276
197405310400	43.829
197406011400	43.8219
197406030000	43.8248
197406040000	43.826
197406050000	43.8269
197406060457	43.8206
197406071400	43.822
197406090000	43.8232
197406100000	43.8239
197406110000	43.8164
197406120000	43.8184
197406130000	43.8192
197406140000	43.8198
197406150000	43.8204
197406160000	43.8142
197406170000	43.815
197406180000	43.8156
197406190000	43.816
197406200000	43.8164
197406210400	43.8078
197406220600	43.8099
197406230800	43.8103
197406241200	43.8105
197406251200	43.811
197406261200	43.8112
197406271200	43.8041
197406281200	43.8044
197406291200	43.8046
197406301200	43.8049
197407011200	43.798
197407021200	43.7981
197407031200	43.7984
197407041200	43.7908
197407051200	43.7911
197407061200	43.7912
197407071200	43.7874
197407081200	43.7876
197407091800	43.7875
197407101800	43.7811
197407111800	43.7812
197407122000	43.781
197407132000	43.7748
197407142036	43.7749
197407152200	43.7745
197407170000	43.7741
197407180000	43.7675
197407190000	43.7671
197407200200	43.7665
197407210600	43.7656
197407221200	43.7648
197407231200	43.759
197407241200	43.7584
197407251200	43.7579
197407261200	43.7508
197407271400	43.7501
197407281400	43.7495
197407291558	43.7486
197407301800	43.7478
197408010000	43.7466
197408020600	43.7398
197408030600	43.739
197408040600	43.738
197408051200	43.7365
197408061200	43.7357
197408071200	43.7294
197408081200	43.7283
197408091200	43.7274
197408101400	43.7202
197408111400	43.719
197408121510	43.7177
197408131600	43.7163
197408141800	43.7148
197408160000	43.713
197408170000	43.7115
197408180000	43.7048
197408190000	43.7034
197408200000	43.7019
197408210000	43.7004
197408220000	43.6989
197408230000	43.6921
197408240000	43.6906
197408250000	43.689
197408260000	43.6874
197408270000	43.6858
197408280000	43.6789
197408291000	43.6766
197408301000	43.675
197408311000	43.6733
197409011800	43.6231
197409022000	43.6284
197409032000	43.6274
197409042000	43.6265
197409052000	43.6257
197409062200	43.6246
197409080000	43.6234
197409090000	43.6169
197409100000	43.6158
197409110000	43.6146
197409120000	43.6134
197409130000	43.6123
197409140000	43.6042
197409150200	43.6031
197409160800	43.6017
197409170800	43.6007
197409181800	43.5916
197409191800	43.5907
197409201800	43.5895
197409211800	43.5884
197409221906	43.5742
197409231912	43.5752
197409242200	43.5741
197409252200	43.5727
197409270600	43.5712
197409280721	43.57
197409290800	43.5688
197409300800	43.5675
197410011200	43.5659
197410021200	43.5571
197410031309	43.5564
197410041600	43.555
197410051800	43.5537
197410070000	43.552
197410080000	43.5506
197410090000	43.5425
197410100000	43.5414
197410110000	43.5401
197410120000	43.5389
197410130000	43.5291
197410140000	43.5289
197410150000	43.5276
197410160000	43.5262
197410170000	43.5248
197410180000	43.5234
197410190000	43.5138
197410200000	43.5139
197410210000	43.5126
197410220400	43.5109
197410230557	43.5094
197410240800	43.5046
197410251000	43.503
197410261200	43.4939
197410271200	43.4928
197410281600	43.4911
197410300000	43.4889
197410310000	43.4873
197411010000	43.4856
197411020000	43.4772
197411030000	43.4757
197411040000	43.4741
197411050000	43.4725
197411060000	43.4708
197411070000	43.469
197411080000	43.4596
197411090400	43.4578
197411100757	43.456
197411110800	43.4545
197411120800	43.4529
197411130800	43.4415
197411141000	43.4401
197411151140	43.4386
197411161200	43.4368
197411171200	43.4352
197411181200	43.4333
197411191200	43.4315
197411201400	43.4294
197411212000	43.4269
197411230200	43.4162
197411240200	43.4154
197411251150	43.4125
197411261400	43.4101
197411271400	43.4077
197411281600	43.405
197411291600	43.4023
197411301600	43.3996
197412012000	43.3963
197412022306	43.3929
197412040400	43.3893
197412050523	43.3861
197412060552	43.3828
197412070800	43.3791
197412081000	43.3754
197412091600	43.3711
197412101600	43.3677
197412111600	43.3643
197412121800	43.3607
197412131800	43.3574
197412150000	43.3533
197412160000	43.3501
197412170000	43.3469
197412180159	43.3518
197412190200	43.3485
197412200200	43.3453
197412210800	43.3416
197412221200	43.3382
197412231200	43.3353
197412241600	43.3394
197412251600	43.3362
197412261600	43.3334
197412271800	43.3395
197412281956	43.3362
197412300000	43.3335
197412310600	43.3383
197501010600	43.3362
197501020600	43.3432
197501030800	43.3417
197501041200	43.348
197501051514	43.3564
197501062200	43.3558
197501072200	43.3652
197501082200	43.3749
197501100000	43.3847
197501110400	43.4332
197501120513	43.4407
197501130538	43.4543
197501140600	43.468
197501151200	43.4887
197501161800	43.5046
197501171800	43.5241
197501181800	43.5394
197501191912	43.5557
197501202000	43.5725
197501212000	43.5982
197501222200	43.616
197501232226	43.6347
197501242327	43.6532
197501260112	43.6801
197501270200	43.696
197501280200	43.711
197501290339	43.7253
197501300400	43.7399
197501310400	43.7563
197502010400	43.7564
197502020400	43.7701
197502030800	43.826
197502041200	43.8396
197502051200	43.852
197502061200	43.8692
197502071200	43.8837
197502081200	43.902
197502091200	43.9205
197502101200	43.9407
197502111200	43.9628
197502121200	43.9874
197502131200	44.0146
197502141200	44.0447
197502151200	44.0734
197502161200	44.1006
197502171200	44.1261
197502181200	44.1457
197502191600	44.169
197502202200	44.2007
197502212200	44.219
197502222200	44.2388
197502232200	44.2451
197502242200	44.265
197502252200	44.2855
197502262200	44.3071
197502272200	44.3148
197502282200	44.3282
197503012200	44.335
197503022200	44.3415
197503040000	44.3483
197503050149	44.3616
197503060200	44.3669
197503070200	44.3722
197503080400	44.378
197503091000	44.3841
197503101000	44.389
197503111000	44.3935
197503121000	44.3978
197503131000	44.4019
197503141000	44.4058
197503151000	44.4095
197503161000	44.4132
197503171200	44.4165
197503181200	44.4207
197503191200	44.4242
197503201200	44.4277
197503211200	44.4309
197503221200	44.4341
197503231200	44.4373
197503241200	44.4406
197503251200	44.4438
197503261200	44.4468
197503271600	44.4504
197503282000	44.4535
197503292000	44.4569
197503310000	44.4547
197504010000	44.4576
197504020000	44.4607
197504030400	44.4643
197504040400	44.4671
197504051151	44.4707
197504061231	44.4678
197504071400	44.4709
197504081600	44.4738
197504092000	44.4767
197504102150	44.4797
197504120400	44.4826
197504131200	44.454
197504141200	44.4578
197504151200	44.4607
197504161349	44.4636
197504171600	44.466
197504182000	44.4685
197504200000	44.4708
197504210000	44.4726
197504220000	44.4745
197504230000	44.4762
197504240000	44.4779
197504250000	44.4795
197504260000	44.481
197504270000	44.474
197504280000	44.4756
197504290000	44.477
197504300000	44.4785
197505010000	44.4799
197505020000	44.4698
197505030000	44.4715
197505040200	44.4729
197505050600	44.4743
197505061400	44.4757
197505071400	44.4767
197505081400	44.4776
197505091400	44.4785
197505110000	44.4796
197505120000	44.4805
197505130000	44.4813
197505140000	44.4739
197505150000	44.475
197505160000	44.4757
197505170000	44.4764
197505180000	44.4771
197505190000	44.4654
197505200000	44.4682
197505210000	44.469
197505220400	44.4699
197505230756	44.4704
197505240800	44.471
197505251400	44.4715
197505262200	44.4721
197505272200	44.4726
197505282200	44.473
197505292200	44.4655
197505310600	44.4664
197506010600	44.4668
197506020600	44.4672
197506030736	44.4575
197506040932	44.4588
197506051000	44.4593
197506061200	44.4596
197506071200	44.4598
197506082000	44.4601
197506100000	44.4603
197506110000	44.4527
197506120000	44.4532
197506130000	44.4534
197506140000	44.4535
197506150000	44.4451
197506160000	44.4466
197506170000	44.4468
197506180000	44.4469
197506190000	44.447
197506200000	44.4396
197506210000	44.4398
197506220000	44.4399
197506230000	44.4399
197506240000	44.4326
197506250000	44.4328
197506260000	44.4328
197506270000	44.4243
197506280000	44.4254
197506290000	44.4254
197506300000	44.4254
197507010000	44.4179
197507020000	44.418
197507030000	44.4179
197507040000	44.4177
197507050000	44.4098
197507060000	44.4096
197507070000	44.4094
197507080000	44.402
197507090000	44.4019
197507100000	44.4016
197507110000	44.3948
197507120000	44.3947
197507130050	44.3874
197507140055	44.3874
197507150400	44.3869
197507160400	44.3786
197507170600	44.3785
197507181200	44.3778
197507191200	44.3772
197507201200	44.3765
197507211200	44.3702
197507221200	44.3696
197507231600	44.3617
197507241758	44.3612
197507252000	44.3605
197507262200	44.3595
197507280400	44.3521
197507290400	44.3517
197507300559	44.3508
197507310800	44.3439
197508010800	44.343
197508021400	44.3417
197508031400	44.3407
197508050000	44.3337
197508060000	44.3326
197508070000	44.3314
197508080000	44.3301
197508090000	44.3233
197508100000	44.322
197508110000	44.3207
197508120000	44.3139
197508130000	44.3124
197508140000	44.3109
197508150000	44.3093
197508160000	44.3023
197508170000	44.3008
197508180000	44.293
197508190200	44.2912
197508200400	44.2893
197508210600	44.2873
197508220600	44.2347
197508230800	44.2375
197508240800	44.2368
197508251800	44.2357
197508261800	44.2348
197508271800	44.2339
197508281800	44.233
197508291800	44.2235
197508301800	44.2242
197508311800	44.2233
197509020000	44.2221
197509030000	44.2145
197509040000	44.2137
197509050200	44.2033
197509060200	44.2027
197509070800	44.2013
197509081800	44.1999
197509091800	44.199
197509101918	44.1914
197509112200	44.1903
197509122200	44.1801
197509140000	44.1793
197509150000	44.1785
197509160000	44.1773
